##TITLE=1D-1H-4-6.4-30-90
##JCAMP-DX=5.01 $$ Magritek Spinsolve SPA1905 1.15.0.976
##DATA TYPE=NMR FID
##DATA CLASS=NTUPLES
##ORIGIN=SPA1905 at Magritek
##OWNER=Copyright (C) 2022 by Magritek
##LONGDATE=2022/05/10 11:15:41.710
##.OBSERVE FREQUENCY=61.5712356553549
##.OBSERVE NUCLEUS=^1H
##.DELAY=( ,  30000)
##.ACQUISITION MODE=SIMULTANEOUS
##.FIELD= 1.5
##.AVERAGES= 3
##.DIGITISER RES=16
##.SHIFT REFERENCE=(INTERNAL, Water, 16375, 4.74)
##$REFERENCE_POINT= 2209.489    $$ Referencing label
$$      Distance of the zero axis position (in Hz) from the last data
$$      point (right edge); positive values -> right edge is below 0 Hz
##SPECTROMETER/DATA SYSTEM=Magritek
##SAMPLE DESCRIPTION=solvent=Water
$$ Bruker specific parameters
$$ --------------------------
##$AUNMP=   <proc_1d_nosref>
##$INSTRUM= <Magritek>
##$SI=      32768
##$TD=      32768
##$TDeff=   32768
##$SW=      81.206750
##$BF1=     61.5712356553549
##$SF=      61.5709451443011
##$LB=      0
##$PHC0=    2.9
##$PHC1=    0.0
##$REVERSE= yes
$$ End of Bruker specific parameters
$$ ---------------------------------
##NTUPLES=NMR FID
##VAR_NAME=        TIME,            FID/REAL,            FID/IMAG, PAGE NUMBER
##SYMBOL=             X,                   R,                   I,           N
##VAR_TYPE= INDEPENDENT,           DEPENDENT,           DEPENDENT,        PAGE
##VAR_FORM=        AFFN,                AFFN,                AFFN,        AFFN
##VAR_DIM=        32768,               32768,               32768,           2
##UNITS=        SECONDS,     ARBITRARY UNITS,     ARBITRARY UNITS,            
##FIRST=              0,    153.483844897427,    -7.7751561655243,           1
##LAST=    6.553400e+00,   -3.18548204218261,    5.86111799564999,           2
##MIN=                0,    -204.70864804339,   -149.841949467899,           1
##MAX=     6.553400e+00,     294.99512550596,    240.496769348307,           2
##FACTOR=             1,                   1,                   1,           1
##PAGE=N=1
##DATA TABLE=(X++(R..R)), XYDATA
0.000000   153.483845   294.995126   262.228293   223.439651   174.975985   118.845923
0.001200    60.573232    -3.928408   -57.576275  -108.841019  -152.155694  -182.114485
0.002400  -199.841610  -204.708648  -192.298895  -172.717062  -139.151758  -100.408293
0.003600   -63.472417   -17.263116    34.284650    74.054811   107.923363   135.514325
0.004800   159.357490   172.763355   174.192474   166.106468   150.432737   123.197492
0.006000    96.297736    60.673651    22.065709   -14.026075   -49.126265   -84.199599
0.007200  -111.175778  -130.015139  -146.084247  -156.492620  -155.553081  -148.257456
0.008400  -124.662584  -102.312570   -77.728176   -46.868264   -16.237248    15.236618
0.009600    40.420502    56.168584    62.188765    70.295411    74.775734    57.243191
0.010800    38.305483    21.830637    -2.659140   -31.737906   -53.322736   -73.715591
0.012000   -88.875331  -104.249089  -112.423083  -110.827441   -99.236169   -81.810634
0.013200   -68.613815   -35.598847   -15.886879     8.026948    34.536258    45.628004
0.014400    62.420976    70.889555    71.034154    62.481278    53.285935    41.976027
0.015600    25.728834     8.599128   -15.595649   -34.143326   -39.883800   -53.839587
0.016800   -63.219606   -56.018598   -53.434264   -51.157735   -40.357259   -23.480819
0.018000   -10.378202    -1.759637    14.419381    30.331084    41.036528    50.362835
0.019200    55.595121    62.767201    61.749166    64.397946    63.178700    54.867527
0.020400    53.501196    44.467402    28.180547    16.738017    10.260459     0.678815
0.021600    -7.537742   -12.609307   -14.348304   -17.559813   -14.775511   -13.061712
0.022800   -15.309312    -2.060853    11.495826    19.873517    26.832409    34.352786
0.024000    34.245362    45.445360    45.043352    36.518990    34.738258    23.416373
0.025200    11.599934    -0.551166   -15.110587   -28.585870   -35.798027   -38.593478
0.026400   -40.599791   -42.245000   -27.871912   -15.452668    -3.822977    16.557900
0.027600    24.545975    41.500082    63.204727    67.538794    67.965171    68.819585
0.028800    61.765662    43.751786    32.014672    10.937616    -7.355967   -25.662356
0.030000   -52.184887   -69.419115   -81.608634   -88.524963   -93.139564   -93.150299
0.031200   -81.974670   -67.064880   -54.524578   -38.371587   -17.481692     4.585300
0.032400    24.604659    40.367619    52.905021    62.819255    67.166127    70.550334
0.033600    70.481330    62.249481    52.010491    36.713156    19.998265    -2.404217
0.034800   -24.472038   -41.105118   -55.557116   -71.172991   -77.460487   -91.308851
0.036000   -97.007590   -92.709871   -83.888852   -69.554183   -57.802605   -36.590441
0.037200   -12.903437    11.546263    33.840493    54.153609    73.610240    87.097086
0.038400    96.101123    99.149425    92.335133    81.600346    63.224539    41.838019
0.039600    17.227184   -15.519226   -41.654212   -60.789816   -75.910723   -94.616634
0.040800  -103.165366   -99.536141   -90.794860   -70.692861   -51.018898   -28.053687
0.042000    -3.055307    28.647041    57.873721    82.027593    95.755313   109.497496
0.043200   109.816865   108.971114    96.697713    84.411090    65.794823    42.388356
0.044400    17.924606    -7.849692   -31.776739   -51.742387   -73.059074   -88.219643
0.045600   -90.640356   -91.642683   -93.728320   -84.667256   -69.517422   -54.795208
0.046800   -34.948546   -13.443040     8.330610    34.960564    53.173165    71.961301
0.048000    88.888138    96.353974    98.292940    99.522506    99.146110    89.013714
0.049200    65.539900    46.081198    24.548421    -3.647832   -30.211269   -51.582081
0.050400   -77.368356   -98.095873  -111.490174  -110.163090  -113.412604  -109.423105
0.051600   -90.886577   -75.442157   -54.498551   -26.622495     1.372547    19.317419
0.052800    45.933738    75.279404    84.096279    87.921743    95.213224    90.808910
0.054000    76.836173    64.496667    44.971861    27.708705     7.448472   -14.859394
0.055200   -25.778442   -37.727502   -53.182656   -57.744789   -58.800828   -64.982144
0.056400   -57.192380   -49.470377   -43.194030   -31.698204   -20.470521    -9.778712
0.057600    -7.249747    -0.532144    12.674996    20.689926    22.349185    31.207380
0.058800    32.424554    36.130617    33.828476    35.005573    35.741414    31.124326
0.060000    24.580250    17.354044    12.871234     2.995005    -3.588319    -8.873488
0.061200   -13.650882   -20.180494   -19.604130   -22.039307   -22.239275   -18.745988
0.062400   -16.016226   -13.406279    -7.437738     0.510675     5.555384    10.265432
0.063600    12.740271    14.546201    13.541801    13.072446    10.850458     6.139582
0.064800    -4.338624    -5.435983    -5.288484    -9.596523    -8.083935    -8.164088
0.066000   -10.732300    -8.215727     1.834443     8.526020     9.877473    11.095476
0.067200    11.617299    16.179847    15.765032     7.467909     4.991826     3.693256
0.068400    -1.244444    -7.841818   -19.872689   -20.554818   -19.952427   -24.261295
0.069600   -24.903348   -16.593418    -4.175003    -9.514298    -0.508188     8.216556
0.070800     8.898686    14.559007    15.321290    11.734628    13.848778    10.676931
0.072000    10.984737     5.619001     1.296913    -4.898453    -7.667877    -3.599054
0.073200    -9.740707    -8.977596    -4.052287    -2.272384    -2.286019     3.401572
0.074400     6.854369     4.819543     7.321652     7.174152    14.319376     3.920909
0.075600     5.500015     6.061501    -1.045305    -1.714214    -2.383537    -0.055369
0.076800     1.001499    -1.902619     1.416313     6.930792     6.582495     7.091098
0.078000     3.625081     3.558148     3.344131    -2.958244    -7.373706   -11.615642
0.079200   -11.722236   -12.604748   -11.881299   -13.031955   -11.371867    -7.704638
0.080400    -0.318126     2.946680     6.091257    11.898664    12.607235    18.320439
0.081600    18.265898    14.357795    12.202325    10.622391     1.603061    -3.643274
0.082800   -10.093562   -18.751375   -22.993310   -18.590654   -16.502117   -18.441082
0.084000   -13.087739    -7.038215    -3.665157     2.223231     9.422996     6.050766
0.085200    10.266260    15.833208    10.747593    12.727879    10.854188    -0.253265
0.086400    -3.812657    -7.158031    -4.870354   -13.849607   -10.062148    -2.367830
0.087600    -6.690333    -1.658845     3.546585     3.746968     7.412954    12.230424
0.088800    15.775766    11.840808     6.234199     9.619649     8.843317     1.563399
0.090000     1.496466    -4.297305   -10.987638    -8.417768    -8.618150    -4.187810
0.091200    -5.766501    -5.966469    -3.691184     4.177490     8.513628     3.842828
0.092400    11.082255     7.830255     7.241084     6.638279     8.283903     3.666400
0.093600     0.400765     1.417557     2.314118    -3.788287    -1.727849     2.005484
0.094800     2.701249    -0.818481     0.988278    -2.664902    -3.762260    -1.554322
0.096000     2.835528    -3.600711    -9.341600   -13.329027   -13.141450   -11.186777
0.097200   -16.257514   -12.469640    -6.085870    -2.432276     6.306518     9.972918
0.098400    14.067354    20.718025    20.984926    24.731065    24.623227    17.489566
0.099600    12.028384     3.209023    -4.071310   -15.018456   -22.592545   -28.788325
0.100800   -33.364508   -40.242003   -41.338118   -38.232789   -26.696472   -19.642964
0.102000   -12.081267     1.515489    14.456556    26.834895    37.981596    43.869570
0.103200    48.485829    48.350721    46.744345    46.489422    35.314208    24.500511
0.104400    10.810381     1.509687    -6.653572   -19.233122   -30.741340   -39.773476
0.105600   -36.481400   -43.225444   -47.012074   -46.543134   -40.440728   -27.807466
0.106800   -24.300128   -13.594684    -7.371634     1.875763    11.002102    23.300287
